Zeit [min]	Potsdam Altitude [Deg]	Potsdam Azimuth [Deg]	Shanghai Altitude [Deg]	Shanghai Azimuth [Deg]	Kaxgar Altitude [Deg]	Kaxgar Azimuth [Deg]	Singapur Altitude [Deg]	Singapur Azimuth [Deg]	Lima Altitude [Deg]	Lima Azimuth [Deg]	Denver Altitude [Deg]	Denver Azimuth [Deg]	Barrow Altitude [Deg]	Barrow Azimuth [Deg]	Melbourne Altitude [Deg]	Melbourne Azimuth [Deg]
90720	-44.51	353.04	-65.86	356.04	-36.87	294.71	-70.14	252.73	-70.23	195.36	-57.22	354.64	-23.92	332.87	-44.59	191.51
90721	-44.53	353.39	-65.88	356.65	-37.05	294.93	-70.38	252.53	-70.3	194.65	-57.23	355.1	-23.96	333.14	-44.63	191.16
90722	-44.55	353.74	-65.89	357.25	-37.22	295.15	-70.62	252.32	-70.36	193.94	-57.25	355.56	-24	333.4	-44.67	190.82
90723	-44.57	354.09	-65.9	357.86	-37.4	295.37	-70.86	252.11	-70.42	193.22	-57.26	356.02	-24.03	333.67	-44.71	190.47
90724	-44.58	354.43	-65.9	358.47	-37.57	295.6	-71.09	251.9	-70.47	192.5	-57.28	356.47	-24.07	333.94	-44.74	190.13
90725	-44.59	354.78	-65.91	359.08	-37.75	295.82	-71.33	251.67	-70.52	191.77	-57.29	356.93	-24.1	334.21	-44.78	189.78
90726	-44.61	355.13	-65.91	359.68	-37.92	296.04	-71.57	251.44	-70.57	191.04	-57.3	357.39	-24.14	334.48	-44.81	189.43
90727	-44.62	355.48	-65.91	0.29	-38.09	296.27	-71.81	251.21	-70.62	190.3	-57.3	357.85	-24.17	334.75	-44.84	189.09
90728	-44.63	355.82	-65.91	0.9	-38.26	296.5	-72.04	250.97	-70.66	189.57	-57.31	358.31	-24.2	335.02	-44.87	188.74
90729	-44.64	356.17	-65.9	1.51	-38.44	296.72	-72.28	250.72	-70.7	188.83	-57.31	358.77	-24.24	335.29	-44.9	188.39
90730	-44.65	356.52	-65.9	2.12	-38.61	296.95	-72.51	250.46	-70.73	188.08	-57.32	359.23	-24.27	335.56	-44.93	188.04
90731	-44.66	356.87	-65.89	2.72	-38.78	297.18	-72.75	250.2	-70.77	187.34	-57.32	359.69	-24.3	335.83	-44.96	187.7
90732	-44.67	357.22	-65.88	3.33	-38.95	297.41	-72.98	249.93	-70.8	186.59	-57.32	0.15	-24.34	336.1	-44.99	187.35
90733	-44.67	357.57	-65.86	3.94	-39.12	297.64	-73.22	249.65	-70.82	185.84	-57.32	0.61	-24.37	336.37	-45.01	187
90734	-44.68	357.92	-65.85	4.54	-39.29	297.88	-73.45	249.37	-70.85	185.09	-57.31	1.07	-24.4	336.64	-45.03	186.65
90735	-44.68	358.27	-65.83	5.14	-39.46	298.11	-73.69	249.08	-70.87	184.33	-57.31	1.53	-24.43	336.91	-45.06	186.3
90736	-44.69	358.61	-65.81	5.75	-39.63	298.34	-73.92	248.77	-70.89	183.58	-57.3	1.99	-24.46	337.18	-45.08	185.95
90737	-44.69	358.96	-65.78	6.35	-39.8	298.58	-74.15	248.46	-70.9	182.82	-57.3	2.44	-24.49	337.45	-45.1	185.6
90738	-44.69	359.31	-65.76	6.95	-39.97	298.82	-74.39	248.14	-70.91	182.06	-57.29	2.9	-24.52	337.72	-45.12	185.25
90739	-44.69	359.66	-65.73	7.55	-40.14	299.05	-74.62	247.81	-70.92	181.3	-57.28	3.36	-24.55	337.99	-45.13	184.9
90740	-44.69	0.01	-65.7	8.15	-40.31	299.29	-74.85	247.47	-70.92	180.54	-57.26	3.82	-24.58	338.26	-45.15	184.55
90741	-44.69	0.36	-65.67	8.75	-40.48	299.53	-75.08	247.11	-70.92	179.79	-57.25	4.28	-24.61	338.53	-45.17	184.2
90742	-44.69	0.71	-65.64	9.35	-40.64	299.77	-75.31	246.75	-70.92	179.03	-57.23	4.74	-24.64	338.8	-45.18	183.84
90743	-44.69	1.06	-65.6	9.94	-40.81	300.02	-75.54	246.38	-70.92	178.27	-57.22	5.19	-24.67	339.08	-45.19	183.49
90744	-44.69	1.41	-65.56	10.53	-40.98	300.26	-75.77	245.99	-70.91	177.51	-57.2	5.65	-24.7	339.35	-45.21	183.14
90745	-44.68	1.76	-65.52	11.13	-41.15	300.5	-76	245.59	-70.89	176.75	-57.18	6.11	-24.72	339.62	-45.22	182.79
90746	-44.68	2.1	-65.48	11.71	-41.31	300.75	-76.22	245.17	-70.88	175.99	-57.16	6.56	-24.75	339.89	-45.23	182.44
90747	-44.67	2.45	-65.43	12.3	-41.48	300.99	-76.45	244.74	-70.86	175.24	-57.14	7.02	-24.78	340.16	-45.23	182.08
90748	-44.66	2.8	-65.39	12.89	-41.64	301.24	-76.68	244.3	-70.84	174.49	-57.11	7.47	-24.81	340.43	-45.24	181.73
90749	-44.65	3.15	-65.34	13.47	-41.81	301.49	-76.9	243.84	-70.81	173.73	-57.08	7.93	-24.83	340.7	-45.25	181.38
90750	-44.64	3.5	-65.29	14.05	-41.97	301.74	-77.12	243.37	-70.79	172.98	-57.06	8.38	-24.86	340.98	-45.25	181.03
90751	-44.63	3.85	-65.23	14.63	-42.13	301.99	-77.35	242.88	-70.75	172.24	-57.03	8.83	-24.88	341.25	-45.25	180.67
90752	-44.62	4.2	-65.18	15.21	-42.3	302.24	-77.57	242.37	-70.72	171.49	-57	9.29	-24.91	341.52	-45.26	180.32
90753	-44.61	4.54	-65.12	15.78	-42.46	302.5	-77.79	241.84	-70.68	170.75	-56.97	9.74	-24.93	341.79	-45.26	179.97
90754	-44.6	4.89	-65.06	16.35	-42.62	302.75	-78.01	241.29	-70.64	170.01	-56.93	10.19	-24.96	342.07	-45.26	179.62
90755	-44.59	5.24	-65	16.92	-42.78	303.01	-78.23	240.72	-70.6	169.27	-56.9	10.64	-24.98	342.34	-45.25	179.27
90756	-44.57	5.59	-64.94	17.49	-42.95	303.27	-78.45	240.13	-70.55	168.54	-56.86	11.09	-25.01	342.61	-45.25	178.91
90757	-44.56	5.94	-64.87	18.06	-43.11	303.52	-78.66	239.52	-70.5	167.81	-56.82	11.54	-25.03	342.88	-45.25	178.56
90758	-44.54	6.28	-64.8	18.62	-43.27	303.78	-78.88	238.88	-70.45	167.09	-56.78	11.98	-25.05	343.16	-45.24	178.21
90759	-44.52	6.63	-64.73	19.18	-43.43	304.04	-79.09	238.22	-70.39	166.37	-56.74	12.43	-25.08	343.43	-45.24	177.86
90760	-44.5	6.98	-64.66	19.73	-43.59	304.31	-79.3	237.53	-70.33	165.65	-56.7	12.88	-25.1	343.7	-45.23	177.5
90761	-44.48	7.32	-64.59	20.28	-43.75	304.57	-79.51	236.81	-70.27	164.94	-56.66	13.32	-25.12	343.97	-45.22	177.15
90762	-44.46	7.67	-64.51	20.84	-43.9	304.83	-79.72	236.06	-70.21	164.23	-56.61	13.76	-25.14	344.25	-45.21	176.8
90763	-44.44	8.02	-64.44	21.38	-44.06	305.1	-79.93	235.28	-70.14	163.52	-56.56	14.21	-25.16	344.52	-45.2	176.45
90764	-44.42	8.36	-64.36	21.93	-44.22	305.37	-80.13	234.47	-70.07	162.82	-56.52	14.65	-25.18	344.79	-45.18	176.1
90765	-44.4	8.71	-64.28	22.47	-44.38	305.64	-80.34	233.63	-70	162.13	-56.47	15.09	-25.21	345.07	-45.17	175.74
90766	-44.37	9.05	-64.19	23.01	-44.53	305.91	-80.54	232.75	-69.92	161.44	-56.42	15.53	-25.23	345.34	-45.16	175.39
90767	-44.35	9.4	-64.11	23.54	-44.69	306.18	-80.73	231.83	-69.84	160.76	-56.36	15.97	-25.25	345.61	-45.14	175.04
90768	-44.32	9.75	-64.02	24.07	-44.84	306.45	-80.93	230.87	-69.76	160.08	-56.31	16.4	-25.26	345.89	-45.12	174.69
90769	-44.3	10.09	-63.93	24.6	-45	306.72	-81.12	229.86	-69.67	159.41	-56.25	16.84	-25.28	346.16	-45.1	174.34
90770	-44.27	10.43	-63.84	25.13	-45.15	307	-81.31	228.82	-69.59	158.74	-56.2	17.27	-25.3	346.43	-45.08	173.99
90771	-44.24	10.78	-63.75	25.65	-45.31	307.28	-81.5	227.72	-69.5	158.08	-56.14	17.71	-25.32	346.71	-45.06	173.64
90772	-44.21	11.12	-63.66	26.17	-45.46	307.55	-81.68	226.58	-69.41	157.42	-56.08	18.14	-25.34	346.98	-45.04	173.29
90773	-44.18	11.47	-63.56	26.68	-45.61	307.83	-81.86	225.39	-69.31	156.77	-56.02	18.57	-25.36	347.26	-45.02	172.94
90774	-44.15	11.81	-63.46	27.19	-45.76	308.11	-82.04	224.14	-69.21	156.13	-55.96	19	-25.37	347.53	-44.99	172.59
90775	-44.12	12.15	-63.37	27.7	-45.92	308.4	-82.21	222.84	-69.11	155.49	-55.89	19.43	-25.39	347.8	-44.97	172.24
90776	-44.09	12.49	-63.27	28.21	-46.07	308.68	-82.38	221.47	-69.01	154.85	-55.83	19.85	-25.41	348.08	-44.94	171.89
90777	-44.05	12.84	-63.16	28.71	-46.22	308.97	-82.54	220.05	-68.91	154.23	-55.76	20.28	-25.42	348.35	-44.91	171.55
90778	-44.02	13.18	-63.06	29.21	-46.37	309.25	-82.7	218.56	-68.8	153.61	-55.69	20.7	-25.44	348.63	-44.88	171.2
90779	-43.98	13.52	-62.95	29.7	-46.52	309.54	-82.85	217.01	-68.69	152.99	-55.63	21.13	-25.45	348.9	-44.85	170.85
90780	-43.95	13.86	-62.85	30.19	-46.66	309.83	-83	215.39	-68.58	152.39	-55.56	21.55	-25.47	349.17	-44.82	170.5
90781	-43.91	14.2	-62.74	30.68	-46.81	310.12	-83.14	213.71	-68.46	151.78	-55.48	21.97	-25.48	349.45	-44.79	170.16
90782	-43.87	14.54	-62.63	31.17	-46.96	310.41	-83.28	211.95	-68.35	151.19	-55.41	22.38	-25.5	349.72	-44.75	169.81
90783	-43.83	14.88	-62.52	31.65	-47.1	310.71	-83.41	210.12	-68.23	150.6	-55.34	22.8	-25.51	350	-44.72	169.47
90784	-43.79	15.22	-62.4	32.12	-47.25	311	-83.53	208.22	-68.11	150.02	-55.26	23.22	-25.53	350.27	-44.68	169.12
90785	-43.75	15.56	-62.29	32.6	-47.4	311.3	-83.65	206.25	-67.98	149.44	-55.19	23.63	-25.54	350.55	-44.64	168.78
90786	-43.71	15.9	-62.17	33.07	-47.54	311.6	-83.75	204.21	-67.86	148.87	-55.11	24.04	-25.55	350.82	-44.6	168.43
90787	-43.67	16.24	-62.05	33.54	-47.68	311.9	-83.85	202.1	-67.73	148.31	-55.03	24.45	-25.56	351.1	-44.56	168.09
90788	-43.62	16.57	-61.94	34	-47.83	312.2	-83.94	199.92	-67.6	147.75	-54.95	24.86	-25.58	351.37	-44.52	167.74
90789	-43.58	16.91	-61.81	34.46	-47.97	312.5	-84.02	197.69	-67.47	147.2	-54.87	25.27	-25.59	351.65	-44.48	167.4
90790	-43.53	17.25	-61.69	34.92	-48.11	312.81	-84.09	195.39	-67.34	146.65	-54.78	25.68	-25.6	351.92	-44.44	167.06
90791	-43.49	17.58	-61.57	35.37	-48.25	313.11	-84.15	193.04	-67.2	146.12	-54.7	26.08	-25.61	352.2	-44.39	166.72
90792	-43.44	17.92	-61.44	35.82	-48.39	313.42	-84.21	190.65	-67.06	145.58	-54.61	26.48	-25.62	352.47	-44.35	166.38
90793	-43.39	18.26	-61.32	36.27	-48.53	313.73	-84.25	188.22	-66.93	145.06	-54.53	26.88	-25.63	352.75	-44.3	166.04
90794	-43.34	18.59	-61.19	36.71	-48.67	314.04	-84.28	185.75	-66.79	144.54	-54.44	27.28	-25.64	353.02	-44.25	165.7
90795	-43.3	18.92	-61.06	37.15	-48.81	314.35	-84.3	183.27	-66.64	144.02	-54.35	27.68	-25.65	353.3	-44.2	165.36
90796	-43.25	19.26	-60.93	37.58	-48.95	314.67	-84.31	180.77	-66.5	143.52	-54.26	28.08	-25.66	353.57	-44.15	165.02
90797	-43.19	19.59	-60.8	38.02	-49.08	314.98	-84.3	178.27	-66.35	143.01	-54.17	28.47	-25.67	353.85	-44.1	164.68
90798	-43.14	19.92	-60.67	38.44	-49.22	315.3	-84.29	175.78	-66.2	142.52	-54.08	28.87	-25.67	354.12	-44.05	164.34
90799	-43.09	20.26	-60.53	38.87	-49.35	315.62	-84.27	173.3	-66.06	142.03	-53.98	29.26	-25.68	354.4	-43.99	164
90800	-43.04	20.59	-60.4	39.29	-49.49	315.94	-84.23	170.84	-65.9	141.55	-53.89	29.65	-25.69	354.67	-43.94	163.67
90801	-42.98	20.92	-60.26	39.71	-49.62	316.26	-84.19	168.42	-65.75	141.07	-53.79	30.03	-25.7	354.95	-43.88	163.33
90802	-42.93	21.25	-60.13	40.13	-49.76	316.59	-84.13	166.04	-65.6	140.6	-53.7	30.42	-25.7	355.22	-43.83	163
90803	-42.87	21.58	-59.99	40.54	-49.89	316.91	-84.07	163.71	-65.44	140.13	-53.6	30.81	-25.71	355.5	-43.77	162.66
90804	-42.81	21.91	-59.85	40.95	-50.02	317.24	-84	161.44	-65.28	139.67	-53.5	31.19	-25.72	355.77	-43.71	162.33
90805	-42.76	22.24	-59.71	41.35	-50.15	317.57	-83.91	159.22	-65.13	139.22	-53.4	31.57	-25.72	356.05	-43.65	162
90806	-42.7	22.57	-59.56	41.76	-50.28	317.9	-83.82	157.07	-64.96	138.77	-53.3	31.95	-25.73	356.32	-43.59	161.67
90807	-42.64	22.89	-59.42	42.16	-50.41	318.23	-83.72	154.98	-64.8	138.32	-53.19	32.33	-25.73	356.6	-43.52	161.33
90808	-42.58	23.22	-59.28	42.55	-50.54	318.57	-83.61	152.96	-64.64	137.89	-53.09	32.7	-25.73	356.87	-43.46	161
90809	-42.52	23.55	-59.13	42.94	-50.66	318.9	-83.49	151.01	-64.48	137.45	-52.99	33.08	-25.74	357.15	-43.4	160.67
90810	-42.46	23.87	-58.98	43.33	-50.79	319.24	-83.37	149.14	-64.31	137.03	-52.88	33.45	-25.74	357.43	-43.33	160.34
90811	-42.39	24.2	-58.84	43.72	-50.91	319.58	-83.23	147.33	-64.14	136.6	-52.77	33.82	-25.75	357.7	-43.26	160.02
90812	-42.33	24.52	-58.69	44.1	-51.04	319.92	-83.1	145.6	-63.97	136.19	-52.67	34.19	-25.75	357.98	-43.19	159.69
90813	-42.27	24.85	-58.54	44.48	-51.16	320.26	-82.95	143.94	-63.8	135.78	-52.56	34.56	-25.75	358.25	-43.13	159.36
90814	-42.2	25.17	-58.39	44.86	-51.28	320.61	-82.8	142.34	-63.63	135.37	-52.45	34.92	-25.75	358.53	-43.06	159.04
90815	-42.14	25.49	-58.24	45.23	-51.41	320.95	-82.65	140.81	-63.46	134.97	-52.34	35.29	-25.75	358.8	-42.98	158.71
90816	-42.07	25.82	-58.08	45.61	-51.53	321.3	-82.49	139.35	-63.29	134.57	-52.22	35.65	-25.76	359.08	-42.91	158.39
90817	-42	26.14	-57.93	45.97	-51.65	321.65	-82.32	137.94	-63.11	134.18	-52.11	36.01	-25.76	359.35	-42.84	158.06
90818	-41.94	26.46	-57.78	46.34	-51.77	322	-82.15	136.6	-62.94	133.8	-52	36.37	-25.76	359.63	-42.77	157.74
90819	-41.87	26.78	-57.62	46.7	-51.88	322.35	-81.98	135.32	-62.76	133.42	-51.88	36.72	-25.76	359.91	-42.69	157.42
90820	-41.8	27.1	-57.46	47.06	-52	322.71	-81.8	134.09	-62.58	133.04	-51.77	37.08	-25.76	0.18	-42.61	157.1
90821	-41.73	27.42	-57.31	47.42	-52.12	323.07	-81.62	132.91	-62.4	132.67	-51.65	37.43	-25.76	0.46	-42.54	156.78
90822	-41.66	27.74	-57.15	47.77	-52.23	323.42	-81.44	131.78	-62.22	132.3	-51.53	37.78	-25.75	0.73	-42.46	156.46
90823	-41.58	28.05	-56.99	48.12	-52.35	323.78	-81.25	130.71	-62.04	131.94	-51.41	38.13	-25.75	1.01	-42.38	156.14
90824	-41.51	28.37	-56.83	48.47	-52.46	324.15	-81.06	129.67	-61.86	131.58	-51.3	38.48	-25.75	1.28	-42.3	155.82
90825	-41.44	28.69	-56.67	48.81	-52.57	324.51	-80.86	128.69	-61.68	131.23	-51.18	38.83	-25.75	1.56	-42.22	155.5
90826	-41.36	29	-56.51	49.15	-52.68	324.87	-80.67	127.74	-61.49	130.88	-51.05	39.17	-25.75	1.83	-42.13	155.19
90827	-41.29	29.32	-56.34	49.49	-52.8	325.24	-80.47	126.83	-61.31	130.53	-50.93	39.52	-25.74	2.11	-42.05	154.87
90828	-41.21	29.63	-56.18	49.83	-52.9	325.61	-80.27	125.96	-61.12	130.19	-50.81	39.86	-25.74	2.38	-41.97	154.56
90829	-41.14	29.95	-56.02	50.16	-53.01	325.98	-80.06	125.13	-60.93	129.85	-50.69	40.2	-25.74	2.66	-41.88	154.25
90830	-41.06	30.26	-55.85	50.49	-53.12	326.35	-79.86	124.33	-60.75	129.52	-50.56	40.54	-25.73	2.94	-41.8	153.93
90831	-40.98	30.57	-55.69	50.82	-53.23	326.73	-79.65	123.56	-60.56	129.19	-50.43	40.87	-25.73	3.21	-41.71	153.62
90832	-40.91	30.88	-55.52	51.15	-53.33	327.1	-79.44	122.83	-60.37	128.87	-50.31	41.21	-25.72	3.49	-41.62	153.31
90833	-40.83	31.2	-55.35	51.47	-53.44	327.48	-79.23	122.12	-60.18	128.55	-50.18	41.54	-25.72	3.76	-41.53	153
90834	-40.75	31.51	-55.19	51.79	-53.54	327.86	-79.02	121.44	-59.98	128.23	-50.05	41.87	-25.71	4.04	-41.44	152.69
90835	-40.67	31.82	-55.02	52.11	-53.64	328.24	-78.81	120.78	-59.79	127.92	-49.92	42.2	-25.71	4.31	-41.35	152.39
90836	-40.59	32.13	-54.85	52.43	-53.74	328.62	-78.59	120.15	-59.6	127.61	-49.79	42.53	-25.7	4.59	-41.26	152.08
90837	-40.5	32.43	-54.68	52.74	-53.84	329.01	-78.37	119.55	-59.4	127.31	-49.66	42.86	-25.69	4.86	-41.17	151.77
90838	-40.42	32.74	-54.51	53.05	-53.94	329.4	-78.16	118.96	-59.21	127.01	-49.53	43.18	-25.68	5.14	-41.07	151.47
90839	-40.34	33.05	-54.33	53.36	-54.04	329.78	-77.94	118.4	-59.01	126.71	-49.4	43.5	-25.68	5.41	-40.98	151.16
90840	-40.26	33.35	-54.16	53.66	-54.13	330.17	-77.72	117.86	-58.82	126.41	-49.27	43.83	-25.67	5.69	-40.88	150.86
90841	-40.17	33.66	-53.99	53.97	-54.23	330.57	-77.5	117.34	-58.62	126.12	-49.13	44.15	-25.66	5.96	-40.78	150.56
90842	-40.09	33.96	-53.82	54.27	-54.32	330.96	-77.27	116.84	-58.42	125.84	-49	44.46	-25.65	6.24	-40.69	150.26
90843	-40	34.27	-53.64	54.57	-54.42	331.35	-77.05	116.35	-58.22	125.55	-48.86	44.78	-25.64	6.51	-40.59	149.96
90844	-39.91	34.57	-53.47	54.86	-54.51	331.75	-76.83	115.88	-58.03	125.27	-48.73	45.1	-25.63	6.79	-40.49	149.66
90845	-39.83	34.87	-53.29	55.16	-54.6	332.15	-76.6	115.43	-57.83	125	-48.59	45.41	-25.62	7.06	-40.39	149.36
90846	-39.74	35.18	-53.12	55.45	-54.69	332.55	-76.37	114.99	-57.63	124.72	-48.45	45.72	-25.61	7.34	-40.29	149.06
90847	-39.65	35.48	-52.94	55.74	-54.77	332.95	-76.15	114.57	-57.42	124.45	-48.32	46.03	-25.6	7.61	-40.19	148.77
90848	-39.56	35.78	-52.76	56.03	-54.86	333.35	-75.92	114.16	-57.22	124.18	-48.18	46.34	-25.59	7.89	-40.08	148.47
90849	-39.47	36.08	-52.58	56.31	-54.95	333.76	-75.69	113.76	-57.02	123.92	-48.04	46.65	-25.58	8.16	-39.98	148.18
90850	-39.38	36.38	-52.41	56.59	-55.03	334.17	-75.46	113.38	-56.82	123.66	-47.9	46.95	-25.57	8.44	-39.87	147.88
90851	-39.29	36.68	-52.23	56.88	-55.12	334.57	-75.23	113	-56.61	123.4	-47.76	47.26	-25.56	8.71	-39.77	147.59
90852	-39.2	36.97	-52.05	57.15	-55.2	334.98	-75	112.64	-56.41	123.14	-47.61	47.56	-25.54	8.99	-39.66	147.3
90853	-39.11	37.27	-51.87	57.43	-55.28	335.4	-74.77	112.3	-56.2	122.89	-47.47	47.86	-25.53	9.26	-39.56	147.01
90854	-39.01	37.57	-51.69	57.71	-55.36	335.81	-74.54	111.96	-56	122.64	-47.33	48.16	-25.52	9.54	-39.45	146.72
90855	-38.92	37.86	-51.5	57.98	-55.44	336.22	-74.31	111.63	-55.79	122.4	-47.18	48.46	-25.5	9.81	-39.34	146.43
90856	-38.82	38.16	-51.32	58.25	-55.51	336.64	-74.08	111.31	-55.59	122.15	-47.04	48.76	-25.49	10.09	-39.23	146.14
90857	-38.73	38.45	-51.14	58.52	-55.59	337.06	-73.84	111	-55.38	121.91	-46.9	49.05	-25.47	10.36	-39.12	145.86
90858	-38.63	38.75	-50.96	58.79	-55.66	337.48	-73.61	110.7	-55.17	121.67	-46.75	49.34	-25.46	10.63	-39.01	145.57
90859	-38.54	39.04	-50.77	59.05	-55.74	337.9	-73.37	110.41	-54.96	121.44	-46.6	49.64	-25.44	10.91	-38.9	145.29
90860	-38.44	39.33	-50.59	59.31	-55.81	338.32	-73.14	110.13	-54.75	121.21	-46.46	49.93	-25.43	11.18	-38.78	145
90861	-38.34	39.62	-50.41	59.57	-55.88	338.74	-72.91	109.85	-54.54	120.97	-46.31	50.22	-25.41	11.46	-38.67	144.72
90862	-38.25	39.91	-50.22	59.83	-55.95	339.17	-72.67	109.59	-54.33	120.75	-46.16	50.5	-25.4	11.73	-38.55	144.44
90863	-38.15	40.2	-50.04	60.09	-56.01	339.6	-72.43	109.33	-54.12	120.52	-46.01	50.79	-25.38	12.01	-38.44	144.16
90864	-38.05	40.49	-49.85	60.35	-56.08	340.02	-72.2	109.08	-53.91	120.3	-45.86	51.08	-25.36	12.28	-38.32	143.88
90865	-37.95	40.78	-49.66	60.6	-56.15	340.45	-71.96	108.83	-53.7	120.08	-45.71	51.36	-25.34	12.55	-38.21	143.6
90866	-37.85	41.07	-49.48	60.85	-56.21	340.88	-71.73	108.59	-53.49	119.86	-45.56	51.64	-25.33	12.83	-38.09	143.32
90867	-37.75	41.35	-49.29	61.1	-56.27	341.32	-71.49	108.36	-53.28	119.64	-45.41	51.92	-25.31	13.1	-37.97	143.04
90868	-37.65	41.64	-49.1	61.35	-56.33	341.75	-71.25	108.13	-53.07	119.43	-45.26	52.2	-25.29	13.37	-37.85	142.77
90869	-37.54	41.93	-48.91	61.6	-56.39	342.19	-71.01	107.91	-52.85	119.22	-45.11	52.48	-25.27	13.65	-37.73	142.49
90870	-37.44	42.21	-48.72	61.84	-56.45	342.62	-70.78	107.69	-52.64	119.01	-44.95	52.75	-25.25	13.92	-37.61	142.22
90871	-37.34	42.49	-48.54	62.09	-56.51	343.06	-70.54	107.48	-52.42	118.8	-44.8	53.03	-25.23	14.2	-37.49	141.95
90872	-37.24	42.78	-48.35	62.33	-56.56	343.5	-70.3	107.28	-52.21	118.6	-44.65	53.3	-25.21	14.47	-37.37	141.67
90873	-37.13	43.06	-48.16	62.57	-56.62	343.94	-70.06	107.08	-52	118.4	-44.49	53.58	-25.19	14.74	-37.24	141.4
90874	-37.03	43.34	-47.97	62.81	-56.67	344.38	-69.82	106.88	-51.78	118.2	-44.34	53.85	-25.17	15.02	-37.12	141.13
90875	-36.92	43.62	-47.78	63.04	-56.72	344.82	-69.58	106.69	-51.56	118	-44.18	54.12	-25.15	15.29	-37	140.86
90876	-36.82	43.9	-47.58	63.28	-56.77	345.26	-69.34	106.51	-51.35	117.8	-44.02	54.39	-25.13	15.56	-36.87	140.6
90877	-36.71	44.18	-47.39	63.51	-56.82	345.71	-69.1	106.33	-51.13	117.61	-43.87	54.65	-25.11	15.83	-36.75	140.33
90878	-36.6	44.46	-47.2	63.74	-56.86	346.15	-68.86	106.15	-50.92	117.42	-43.71	54.92	-25.08	16.11	-36.62	140.06
90879	-36.49	44.74	-47.01	63.97	-56.91	346.6	-68.62	105.98	-50.7	117.23	-43.55	55.18	-25.06	16.38	-36.49	139.8
90880	-36.39	45.02	-46.82	64.2	-56.95	347.05	-68.38	105.81	-50.48	117.04	-43.39	55.45	-25.04	16.65	-36.36	139.53
90881	-36.28	45.3	-46.62	64.43	-57	347.5	-68.14	105.65	-50.26	116.85	-43.24	55.71	-25.01	16.93	-36.24	139.27
90882	-36.17	45.57	-46.43	64.66	-57.04	347.95	-67.9	105.49	-50.04	116.67	-43.08	55.97	-24.99	17.2	-36.11	139.01
90883	-36.06	45.85	-46.24	64.88	-57.08	348.4	-67.66	105.33	-49.83	116.49	-42.92	56.23	-24.97	17.47	-35.98	138.75
90884	-35.95	46.12	-46.04	65.1	-57.11	348.85	-67.42	105.17	-49.61	116.31	-42.76	56.49	-24.94	17.74	-35.85	138.48
90885	-35.84	46.4	-45.85	65.33	-57.15	349.3	-67.18	105.02	-49.39	116.13	-42.6	56.75	-24.92	18.02	-35.71	138.22
90886	-35.73	46.67	-45.65	65.55	-57.18	349.75	-66.94	104.88	-49.17	115.95	-42.43	57	-24.89	18.29	-35.58	137.97
90887	-35.62	46.94	-45.46	65.77	-57.22	350.21	-66.69	104.73	-48.95	115.77	-42.27	57.26	-24.87	18.56	-35.45	137.71
90888	-35.51	47.22	-45.26	65.98	-57.25	350.66	-66.45	104.59	-48.73	115.6	-42.11	57.51	-24.84	18.83	-35.32	137.45
90889	-35.39	47.49	-45.07	66.2	-57.28	351.12	-66.21	104.45	-48.51	115.43	-41.95	57.76	-24.81	19.1	-35.18	137.2
90890	-35.28	47.76	-44.87	66.41	-57.31	351.57	-65.97	104.32	-48.29	115.26	-41.78	58.01	-24.79	19.38	-35.05	136.94
90891	-35.17	48.03	-44.67	66.63	-57.34	352.03	-65.73	104.19	-48.07	115.09	-41.62	58.26	-24.76	19.65	-34.91	136.69
90892	-35.05	48.3	-44.48	66.84	-57.36	352.49	-65.48	104.06	-47.84	114.92	-41.46	58.51	-24.73	19.92	-34.78	136.43
90893	-34.94	48.57	-44.28	67.05	-57.39	352.95	-65.24	103.93	-47.62	114.76	-41.29	58.76	-24.71	20.19	-34.64	136.18
90894	-34.82	48.84	-44.08	67.26	-57.41	353.41	-65	103.81	-47.4	114.59	-41.13	59.01	-24.68	20.46	-34.5	135.93
